# Wave

# Solution by 8-term Fourier series

# Surface of wave - trough-crest-trough, note quadratic point spacing clustered around crest
# Non-dimensionalised with respect to depth
# X/d, eta/d, & check of surface pressure

 -1.0969	 0.9766	  2e-14
 -0.9900	 0.9776	  3e-12
 -0.8885	 0.9803	 -8e-12
 -0.7925	 0.9843	  7e-12
 -0.7020	 0.9892	  5e-12
 -0.6170	 0.9945	 -1e-11
 -0.5375	 0.9999	  4e-12
 -0.4634	 1.0050	  1e-11
 -0.3949	 1.0097	 -5e-12
 -0.3318	 1.0138	 -1e-11
 -0.2742	 1.0171	  2e-14
 -0.2221	 1.0197	  9e-12
 -0.1755	 1.0217	  6e-12
 -0.1344	 1.0231	 -4e-13
 -0.0987	 1.0240	 -3e-12
 -0.0686	 1.0246	 -3e-12
 -0.0439	 1.0249	 -2e-12
 -0.0247	 1.0251	 -6e-13
 -0.0110	 1.0251	 -1e-13
 -0.0027	 1.0251	  8e-15
  0.0000	 1.0251	  2e-14
  0.0027	 1.0251	  8e-15
  0.0110	 1.0251	 -1e-13
  0.0247	 1.0251	 -6e-13
  0.0439	 1.0249	 -2e-12
  0.0686	 1.0246	 -3e-12
  0.0987	 1.0240	 -3e-12
  0.1344	 1.0231	 -4e-13
  0.1755	 1.0217	  6e-12
  0.2221	 1.0197	  9e-12
  0.2742	 1.0171	  2e-14
  0.3318	 1.0138	 -1e-11
  0.3949	 1.0097	 -5e-12
  0.4634	 1.0050	  1e-11
  0.5375	 0.9999	  4e-12
  0.6170	 0.9945	 -1e-11
  0.7020	 0.9892	  5e-12
  0.7925	 0.9843	  7e-12
  0.8885	 0.9803	 -8e-12
  0.9900	 0.9776	  3e-12
  1.0969	 0.9766	  2e-14

