# Wave

# Solution by 8-term Fourier series

# Surface of wave - trough-crest-trough, note quadratic point spacing clustered around crest
# Non-dimensionalised with respect to depth
# X/d, eta/d, & check of surface pressure

 -1.3516	 0.9765	 -7e-14
 -1.2198	 0.9775	  5e-13
 -1.0948	 0.9802	 -2e-12
 -0.9765	 0.9843	  2e-12
 -0.8650	 0.9892	  1e-12
 -0.7603	 0.9946	 -3e-12
 -0.6623	 1.0000	  8e-13
 -0.5710	 1.0052	  3e-12
 -0.4866	 1.0098	 -1e-12
 -0.4088	 1.0138	 -3e-12
 -0.3379	 1.0171	 -5e-14
 -0.2737	 1.0197	  2e-12
 -0.2162	 1.0216	  1e-12
 -0.1656	 1.0230	 -2e-13
 -0.1216	 1.0239	 -9e-13
 -0.0845	 1.0245	 -8e-13
 -0.0541	 1.0248	 -5e-13
 -0.0304	 1.0249	 -2e-13
 -0.0135	 1.0250	 -1e-13
 -0.0034	 1.0250	 -7e-14
  0.0000	 1.0250	 -7e-14
  0.0034	 1.0250	 -7e-14
  0.0135	 1.0250	 -1e-13
  0.0304	 1.0249	 -2e-13
  0.0541	 1.0248	 -5e-13
  0.0845	 1.0245	 -8e-13
  0.1216	 1.0239	 -9e-13
  0.1656	 1.0230	 -2e-13
  0.2162	 1.0216	  1e-12
  0.2737	 1.0197	  2e-12
  0.3379	 1.0171	 -5e-14
  0.4088	 1.0138	 -3e-12
  0.4866	 1.0098	 -1e-12
  0.5710	 1.0052	  3e-12
  0.6623	 1.0000	  8e-13
  0.7603	 0.9946	 -3e-12
  0.8650	 0.9892	  1e-12
  0.9765	 0.9843	  2e-12
  1.0948	 0.9802	 -2e-12
  1.2198	 0.9775	  5e-13
  1.3516	 0.9765	 -7e-14

