# Wave

# Solution by 8-term Fourier series

# Surface of wave - trough-crest-trough, note quadratic point spacing clustered around crest
# Non-dimensionalised with respect to depth
# X/d, eta/d, & check of surface pressure

 -0.6544	 0.9772	 -2e-14
 -0.5906	 0.9781	  2e-10
 -0.5301	 0.9806	 -4e-10
 -0.4728	 0.9843	  4e-10
 -0.4188	 0.9889	  3e-10
 -0.3681	 0.9940	 -9e-10
 -0.3207	 0.9993	  2e-10
 -0.2765	 1.0045	  8e-10
 -0.2356	 1.0092	 -3e-10
 -0.1980	 1.0134	 -8e-10
 -0.1636	 1.0170	 -3e-14
 -0.1325	 1.0198	  6e-10
 -0.1047	 1.0219	  4e-10
 -0.0802	 1.0235	 -3e-11
 -0.0589	 1.0245	 -2e-10
 -0.0409	 1.0251	 -2e-10
 -0.0262	 1.0255	 -1e-10
 -0.0147	 1.0256	 -4e-11
 -0.0065	 1.0257	 -8e-12
 -0.0016	 1.0257	 -6e-13
  0.0000	 1.0257	 -3e-14
  0.0016	 1.0257	 -6e-13
  0.0065	 1.0257	 -8e-12
  0.0147	 1.0256	 -4e-11
  0.0262	 1.0255	 -1e-10
  0.0409	 1.0251	 -2e-10
  0.0589	 1.0245	 -2e-10
  0.0802	 1.0235	 -3e-11
  0.1047	 1.0219	  4e-10
  0.1325	 1.0198	  6e-10
  0.1636	 1.0170	 -3e-14
  0.1980	 1.0134	 -8e-10
  0.2356	 1.0092	 -3e-10
  0.2765	 1.0045	  8e-10
  0.3207	 0.9993	  2e-10
  0.3681	 0.9940	 -9e-10
  0.4188	 0.9889	  3e-10
  0.4728	 0.9843	  4e-10
  0.5301	 0.9806	 -4e-10
  0.5906	 0.9781	  2e-10
  0.6544	 0.9772	 -2e-14

